"i2 0.1 nm mskieh - RawData"
"Wavelength nm.","Abs."
510.00,0.103
510.10,0.103
510.20,0.107
510.30,0.108
510.40,0.109
510.50,0.104
510.60,0.108
510.70,0.106
510.80,0.105
510.90,0.102
511.00,0.106
511.10,0.104
511.20,0.104
511.30,0.107
511.40,0.105
511.50,0.108
511.60,0.107
511.70,0.109
511.80,0.108
511.90,0.102
512.00,0.103
512.10,0.102
512.20,0.107
512.30,0.113
512.40,0.113
512.50,0.108
512.60,0.111
512.70,0.107
512.80,0.108
512.90,0.105
513.00,0.103
513.10,0.107
513.20,0.102
513.30,0.113
513.40,0.111
513.50,0.113
513.60,0.111
513.70,0.110
513.80,0.109
513.90,0.103
514.00,0.105
514.10,0.105
514.20,0.103
514.30,0.106
514.40,0.109
514.50,0.113
514.60,0.113
514.70,0.105
514.80,0.109
514.90,0.111
515.00,0.109
515.10,0.107
515.20,0.106
515.30,0.103
515.40,0.103
515.50,0.105
515.60,0.110
515.70,0.110
515.80,0.110
515.90,0.112
516.00,0.112
516.10,0.105
516.20,0.109
516.30,0.106
516.40,0.109
516.50,0.105
516.60,0.105
516.70,0.104
516.80,0.114
516.90,0.110
517.00,0.113
517.10,0.112
517.20,0.109
517.30,0.105
517.40,0.109
517.50,0.107
517.60,0.103
517.70,0.102
517.80,0.103
517.90,0.105
518.00,0.106
518.10,0.117
518.20,0.113
518.30,0.110
518.40,0.108
518.50,0.109
518.60,0.109
518.70,0.099
518.80,0.102
518.90,0.105
519.00,0.106
519.10,0.106
519.20,0.103
519.30,0.102
519.40,0.108
519.50,0.114
519.60,0.112
519.70,0.110
519.80,0.107
519.90,0.110
520.00,0.108
520.10,0.106
520.20,0.104
520.30,0.103
520.40,0.102
520.50,0.106
520.60,0.103
520.70,0.102
520.80,0.114
520.90,0.114
521.00,0.113
521.10,0.114
521.20,0.113
521.30,0.112
521.40,0.115
521.50,0.108
521.60,0.103
521.70,0.109
521.80,0.102
521.90,0.103
522.00,0.103
522.10,0.107
522.20,0.104
522.30,0.113
522.40,0.119
522.50,0.111
522.60,0.113
522.70,0.114
522.80,0.110
522.90,0.109
523.00,0.108
523.10,0.106
523.20,0.106
523.30,0.099
523.40,0.100
523.50,0.102
523.60,0.102
523.70,0.099
523.80,0.107
523.90,0.115
524.00,0.113
524.10,0.113
524.20,0.115
524.30,0.107
524.40,0.107
524.50,0.103
524.60,0.106
524.70,0.104
524.80,0.105
524.90,0.106
525.00,0.106
525.10,0.101
525.20,0.098
525.30,0.103
525.40,0.109
525.50,0.118
525.60,0.117
525.70,0.116
525.80,0.110
525.90,0.111
526.00,0.113
526.10,0.108
526.20,0.107
526.30,0.106
526.40,0.104
526.50,0.104
526.60,0.100
526.70,0.104
526.80,0.101
526.90,0.103
527.00,0.107
527.10,0.114
527.20,0.115
527.30,0.116
527.40,0.113
527.50,0.114
527.60,0.112
527.70,0.111
527.80,0.108
527.90,0.102
528.00,0.107
528.10,0.102
528.20,0.101
528.30,0.103
528.40,0.101
528.50,0.101
528.60,0.096
528.70,0.103
528.80,0.112
528.90,0.117
529.00,0.116
529.10,0.114
529.20,0.115
529.30,0.111
529.40,0.115
529.50,0.112
529.60,0.106
529.70,0.109
529.80,0.104
529.90,0.106
530.00,0.101
530.10,0.102
530.20,0.104
530.30,0.102
530.40,0.098
530.50,0.099
530.60,0.100
530.70,0.117
530.80,0.116
530.90,0.115
531.00,0.116
531.10,0.113
531.20,0.113
531.30,0.108
531.40,0.109
531.50,0.107
531.60,0.104
531.70,0.106
531.80,0.102
531.90,0.103
532.00,0.100
532.10,0.102
532.20,0.096
532.30,0.098
532.40,0.097
532.50,0.096
532.60,0.110
532.70,0.119
532.80,0.116
532.90,0.114
533.00,0.110
533.10,0.112
533.20,0.110
533.30,0.110
533.40,0.108
533.50,0.106
533.60,0.106
533.70,0.100
533.80,0.102
533.90,0.103
534.00,0.104
534.10,0.097
534.20,0.100
534.30,0.099
534.40,0.097
534.50,0.096
534.60,0.117
534.70,0.117
534.80,0.114
534.90,0.112
535.00,0.116
535.10,0.117
535.20,0.109
535.30,0.105
535.40,0.106
535.50,0.102
535.60,0.105
535.70,0.102
535.80,0.099
535.90,0.102
536.00,0.099
536.10,0.098
536.20,0.099
536.30,0.099
536.40,0.095
536.50,0.098
536.60,0.114
536.70,0.117
536.80,0.114
536.90,0.117
537.00,0.110
537.10,0.110
537.20,0.111
537.30,0.108
537.40,0.105
537.50,0.104
537.60,0.105
537.70,0.108
537.80,0.101
537.90,0.101
538.00,0.101
538.10,0.097
538.20,0.096
538.30,0.095
538.40,0.096
538.50,0.095
538.60,0.097
538.70,0.098
538.80,0.114
538.90,0.114
539.00,0.115
539.10,0.111
539.20,0.108
539.30,0.110
539.40,0.107
539.50,0.111
539.60,0.105
539.70,0.106
539.80,0.106
539.90,0.101
540.00,0.100
540.10,0.100
540.20,0.100
540.30,0.096
540.40,0.094
540.50,0.094
540.60,0.096
540.70,0.096
540.80,0.095
540.90,0.100
541.00,0.114
541.10,0.113
541.20,0.111
541.30,0.113
541.40,0.113
541.50,0.105
541.60,0.107
541.70,0.103
541.80,0.104
541.90,0.100
542.00,0.099
542.10,0.102
542.20,0.098
542.30,0.097
542.40,0.097
542.50,0.097
542.60,0.099
542.70,0.093
542.80,0.095
542.90,0.096
543.00,0.094
543.10,0.096
543.20,0.113
543.30,0.114
543.40,0.113
543.50,0.115
543.60,0.107
543.70,0.107
543.80,0.108
543.90,0.104
544.00,0.106
544.10,0.100
544.20,0.099
544.30,0.100
544.40,0.099
544.50,0.097
544.60,0.095
544.70,0.099
544.80,0.099
544.90,0.093
545.00,0.096
545.10,0.098
545.20,0.099
545.30,0.095
545.40,0.095
545.50,0.097
545.60,0.112
545.70,0.110
545.80,0.111
545.90,0.111
546.00,0.107
546.10,0.105
546.20,0.104
546.30,0.103
546.40,0.098
546.50,0.100
546.60,0.102
546.70,0.103
546.80,0.095
546.90,0.095
547.00,0.097
547.10,0.093
547.20,0.095
547.30,0.098
547.40,0.096
547.50,0.094
547.60,0.093
547.70,0.095
547.80,0.096
547.90,0.091
548.00,0.106
548.10,0.109
548.20,0.110
548.30,0.108
548.40,0.107
548.50,0.104
548.60,0.102
548.70,0.100
548.80,0.098
548.90,0.097
549.00,0.096
549.10,0.098
549.20,0.096
549.30,0.094
549.40,0.094
549.50,0.097
549.60,0.101
549.70,0.094
549.80,0.097
549.90,0.092
550.00,0.094
550.10,0.093
550.20,0.091
550.30,0.091
550.40,0.094
550.50,0.105
550.60,0.110
550.70,0.108
550.80,0.106
550.90,0.104
551.00,0.098
551.10,0.099
551.20,0.099
551.30,0.098
551.40,0.098
551.50,0.094
551.60,0.097
551.70,0.095
551.80,0.091
551.90,0.094
552.00,0.101
552.10,0.093
552.20,0.099
552.30,0.095
552.40,0.092
552.50,0.097
552.60,0.092
552.70,0.090
552.80,0.090
552.90,0.092
553.00,0.093
553.10,0.105
553.20,0.103
553.30,0.103
553.40,0.102
553.50,0.100
553.60,0.102
553.70,0.099
553.80,0.100
553.90,0.099
554.00,0.097
554.10,0.096
554.20,0.095
554.30,0.093
554.40,0.096
554.50,0.096
554.60,0.097
554.70,0.097
554.80,0.096
554.90,0.091
555.00,0.091
555.10,0.090
555.20,0.092
555.30,0.089
555.40,0.089
555.50,0.089
555.60,0.088
555.70,0.090
555.80,0.097
555.90,0.102
556.00,0.105
556.10,0.098
556.20,0.100
556.30,0.096
556.40,0.097
556.50,0.095
556.60,0.093
556.70,0.098
556.80,0.093
556.90,0.093
557.00,0.089
557.10,0.099
557.20,0.098
557.30,0.100
557.40,0.094
557.50,0.095
557.60,0.090
557.70,0.094
557.80,0.094
557.90,0.089
558.00,0.095
558.10,0.096
558.20,0.091
558.30,0.088
558.40,0.084
558.50,0.083
558.60,0.096
558.70,0.098
558.80,0.096
558.90,0.101
559.00,0.097
559.10,0.093
559.20,0.095
559.30,0.092
559.40,0.098
559.50,0.094
559.60,0.091
559.70,0.093
559.80,0.100
559.90,0.098
560.00,0.098
560.10,0.095
560.20,0.093
560.30,0.091
560.40,0.093
560.50,0.092
560.60,0.090
560.70,0.092
560.80,0.086
560.90,0.086
561.00,0.087
561.10,0.089
561.20,0.086
561.30,0.083
561.40,0.089
561.50,0.093
561.60,0.095
561.70,0.094
561.80,0.095
561.90,0.094
562.00,0.091
562.10,0.091
562.20,0.090
562.30,0.092
562.40,0.086
562.50,0.095
562.60,0.097
562.70,0.098
562.80,0.098
562.90,0.096
563.00,0.092
563.10,0.096
563.20,0.091
563.30,0.088
563.40,0.090
563.50,0.092
563.60,0.087
563.70,0.088
563.80,0.088
563.90,0.085
564.00,0.083
564.10,0.085
564.20,0.083
564.30,0.085
564.40,0.084
564.50,0.093
564.60,0.092
564.70,0.092
564.80,0.091
564.90,0.089
565.00,0.088
565.10,0.083
565.20,0.090
565.30,0.091
565.40,0.097
565.50,0.093
565.60,0.097
565.70,0.092
565.80,0.092
565.90,0.090
566.00,0.090
566.10,0.090
566.20,0.089
566.30,0.091
566.40,0.085
566.50,0.088
566.60,0.087
566.70,0.084
566.80,0.086
566.90,0.082
567.00,0.083
567.10,0.082
567.20,0.081
567.30,0.079
567.40,0.081
567.50,0.089
567.60,0.089
567.70,0.086
567.80,0.091
567.90,0.084
568.00,0.085
568.10,0.086
568.20,0.088
568.30,0.095
568.40,0.094
568.50,0.093
568.60,0.095
568.70,0.092
568.80,0.089
568.90,0.089
569.00,0.088
569.10,0.087
569.20,0.084
569.30,0.086
569.40,0.086
569.50,0.083
569.60,0.084
569.70,0.087
569.80,0.085
569.90,0.081
570.00,0.082
570.10,0.084
570.20,0.081
570.30,0.082
570.40,0.083
570.50,0.081
570.60,0.083
570.70,0.086
570.80,0.084
570.90,0.084
571.00,0.084
571.10,0.086
571.20,0.088
571.30,0.092
571.40,0.089
571.50,0.095
571.60,0.094
571.70,0.090
571.80,0.089
571.90,0.087
572.00,0.089
572.10,0.085
572.20,0.088
572.30,0.085
572.40,0.085
572.50,0.085
572.60,0.086
572.70,0.085
572.80,0.083
572.90,0.082
573.00,0.081
573.10,0.083
573.20,0.079
573.30,0.079
573.40,0.077
573.50,0.079
573.60,0.077
573.70,0.077
573.80,0.078
573.90,0.085
574.00,0.082
574.10,0.085
574.20,0.082
574.30,0.081
574.40,0.086
574.50,0.089
574.60,0.089
574.70,0.090
574.80,0.089
574.90,0.086
575.00,0.089
575.10,0.085
575.20,0.087
575.30,0.087
575.40,0.083
575.50,0.084
575.60,0.084
575.70,0.085
575.80,0.081
575.90,0.083
576.00,0.083
576.10,0.079
576.20,0.079
576.30,0.079
576.40,0.080
576.50,0.082
576.60,0.079
576.70,0.079
576.80,0.078
576.90,0.078
577.00,0.079
577.10,0.077
577.20,0.076
577.30,0.083
577.40,0.080
577.50,0.079
577.60,0.080
577.70,0.082
577.80,0.089
577.90,0.087
578.00,0.088
578.10,0.087
578.20,0.084
578.30,0.086
578.40,0.086
578.50,0.085
578.60,0.085
578.70,0.085
578.80,0.085
578.90,0.083
579.00,0.082
579.10,0.083
579.20,0.080
579.30,0.084
579.40,0.083
579.50,0.083
579.60,0.080
579.70,0.077
579.80,0.078
579.90,0.079
580.00,0.080
580.10,0.077
580.20,0.074
580.30,0.074
580.40,0.074
580.50,0.077
580.60,0.075
580.70,0.075
580.80,0.078
580.90,0.077
581.00,0.076
581.10,0.082
581.20,0.082
581.30,0.084
581.40,0.081
581.50,0.084
581.60,0.087
581.70,0.090
581.80,0.084
581.90,0.084
582.00,0.081
582.10,0.083
582.20,0.083
582.30,0.082
582.40,0.083
582.50,0.081
582.60,0.079
582.70,0.080
582.80,0.079
582.90,0.080
583.00,0.078
583.10,0.077
583.20,0.076
583.30,0.078
583.40,0.079
583.50,0.075
583.60,0.076
583.70,0.073
583.80,0.077
583.90,0.078
584.00,0.075
584.10,0.076
584.20,0.077
584.30,0.076
584.40,0.077
584.50,0.081
584.60,0.083
584.70,0.086
584.80,0.081
584.90,0.084
585.00,0.086
585.10,0.083
585.20,0.083
585.30,0.084
585.40,0.082
585.50,0.083
585.60,0.083
585.70,0.080
585.80,0.078
585.90,0.080
586.00,0.078
586.10,0.081
586.20,0.076
586.30,0.077
586.40,0.080
586.50,0.078
586.60,0.078
586.70,0.077
586.80,0.078
586.90,0.072
587.00,0.078
587.10,0.075
587.20,0.076
587.30,0.072
587.40,0.076
587.50,0.076
587.60,0.073
587.70,0.072
587.80,0.070
587.90,0.074
588.00,0.075
588.10,0.079
588.20,0.079
588.30,0.081
588.40,0.082
588.50,0.083
588.60,0.081
588.70,0.083
588.80,0.085
588.90,0.082
589.00,0.081
589.10,0.080
589.20,0.078
589.30,0.081
589.40,0.077
589.50,0.079
589.60,0.079
589.70,0.079
589.80,0.076
589.90,0.077
590.00,0.074
590.10,0.076
590.20,0.079
590.30,0.074
590.40,0.075
590.50,0.074
590.60,0.070
590.70,0.073
590.80,0.072
590.90,0.072
591.00,0.069
591.10,0.069
591.20,0.073
591.30,0.073
591.40,0.072
591.50,0.072
591.60,0.071
591.70,0.074
591.80,0.078
591.90,0.085
592.00,0.080
592.10,0.083
592.20,0.079
592.30,0.082
592.40,0.077
592.50,0.077
592.60,0.080
592.70,0.079
592.80,0.075
592.90,0.079
593.00,0.080
593.10,0.079
593.20,0.077
593.30,0.076
593.40,0.079
593.50,0.075
593.60,0.075
593.70,0.074
593.80,0.075
593.90,0.074
594.00,0.074
594.10,0.071
594.20,0.073
594.30,0.073
594.40,0.075
594.50,0.073
594.60,0.070
594.70,0.071
594.80,0.069
594.90,0.071
595.00,0.072
595.10,0.072
595.20,0.071
595.30,0.073
595.40,0.079
595.50,0.080
595.60,0.082
595.70,0.084
595.80,0.080
595.90,0.078
596.00,0.080
596.10,0.078
596.20,0.079
596.30,0.076
596.40,0.076
596.50,0.077
596.60,0.071
596.70,0.074
596.80,0.077
596.90,0.073
597.00,0.076
597.10,0.072
597.20,0.073
597.30,0.073
597.40,0.074
597.50,0.073
597.60,0.072
597.70,0.073
597.80,0.070
597.90,0.073
598.00,0.068
598.10,0.073
598.20,0.072
598.30,0.070
598.40,0.071
598.50,0.073
598.60,0.071
598.70,0.070
598.80,0.068
598.90,0.073
599.00,0.071
599.10,0.074
599.20,0.075
599.30,0.077
599.40,0.076
599.50,0.075
599.60,0.077
599.70,0.074
599.80,0.076
599.90,0.075
600.00,0.077
600.10,0.071
600.20,0.074
600.30,0.075
600.40,0.075
600.50,0.073
600.60,0.074
600.70,0.074
600.80,0.071
600.90,0.074
601.00,0.074
601.10,0.072
601.20,0.074
601.30,0.071
601.40,0.071
601.50,0.073
601.60,0.070
601.70,0.071
601.80,0.071
601.90,0.071
602.00,0.071
602.10,0.071
602.20,0.071
602.30,0.072
602.40,0.069
602.50,0.073
602.60,0.071
602.70,0.074
602.80,0.069
602.90,0.073
603.00,0.073
603.10,0.074
603.20,0.080
603.30,0.077
603.40,0.075
603.50,0.079
603.60,0.076
603.70,0.079
603.80,0.077
603.90,0.075
604.00,0.074
604.10,0.074
604.20,0.075
604.30,0.073
604.40,0.075
604.50,0.073
604.60,0.072
604.70,0.074
604.80,0.074
604.90,0.074
605.00,0.068
605.10,0.070
605.20,0.069
605.30,0.071
605.40,0.073
605.50,0.071
605.60,0.074
605.70,0.069
605.80,0.072
605.90,0.070
606.00,0.070
606.10,0.069
606.20,0.070
606.30,0.070
606.40,0.071
606.50,0.073
606.60,0.068
606.70,0.069
606.80,0.070
606.90,0.074
607.00,0.076
607.10,0.075
607.20,0.075
607.30,0.073
607.40,0.075
607.50,0.073
607.60,0.074
607.70,0.073
607.80,0.072
607.90,0.075
608.00,0.075
608.10,0.074
608.20,0.072
608.30,0.071
608.40,0.072
608.50,0.073
608.60,0.074
608.70,0.073
608.80,0.072
608.90,0.070
609.00,0.075
609.10,0.070
609.20,0.073
609.30,0.070
609.40,0.070
609.50,0.075
609.60,0.069
609.70,0.071
609.80,0.071
609.90,0.071
610.00,0.066
610.10,0.070
610.20,0.069
610.30,0.069
610.40,0.071
610.50,0.066
610.60,0.067
610.70,0.067
610.80,0.074
610.90,0.069
611.00,0.075
611.10,0.070
611.20,0.073
611.30,0.072
611.40,0.070
611.50,0.073
611.60,0.069
611.70,0.072
611.80,0.073
611.90,0.070
612.00,0.072
612.10,0.076
612.20,0.069
612.30,0.071
612.40,0.074
612.50,0.075
612.60,0.068
612.70,0.071
612.80,0.073
612.90,0.071
613.00,0.071
613.10,0.072
613.20,0.073
613.30,0.069
613.40,0.071
613.50,0.069
613.60,0.071
613.70,0.070
613.80,0.070
613.90,0.069
614.00,0.066
614.10,0.068
614.20,0.067
614.30,0.066
614.40,0.071
614.50,0.069
614.60,0.068
614.70,0.074
614.80,0.072
614.90,0.072
615.00,0.072
615.10,0.071
615.20,0.071
615.30,0.073
615.40,0.074
615.50,0.069
615.60,0.070
615.70,0.072
615.80,0.070
615.90,0.072
616.00,0.071
616.10,0.067
616.20,0.069
616.30,0.070
616.40,0.071
616.50,0.065
616.60,0.068
616.70,0.072
616.80,0.073
616.90,0.064
617.00,0.069
617.10,0.070
617.20,0.068
617.30,0.068
617.40,0.072
617.50,0.068
617.60,0.067
617.70,0.069
617.80,0.064
617.90,0.069
618.00,0.068
618.10,0.067
618.20,0.070
618.30,0.070
618.40,0.071
618.50,0.069
618.60,0.069
618.70,0.070
618.80,0.071
618.90,0.070
619.00,0.070
619.10,0.072
619.20,0.069
619.30,0.068
619.40,0.067
619.50,0.070
619.60,0.072
619.70,0.074
619.80,0.071
619.90,0.067
620.00,0.073
620.10,0.072
620.20,0.073
620.30,0.067
620.40,0.070
620.50,0.067
620.60,0.066
620.70,0.070
620.80,0.069
620.90,0.070
621.00,0.073
621.10,0.071
621.20,0.071
621.30,0.071
621.40,0.070
621.50,0.071
621.60,0.069
621.70,0.068
621.80,0.069
621.90,0.070
622.00,0.069
622.10,0.066
622.20,0.064
622.30,0.067
622.40,0.069
622.50,0.066
622.60,0.068
622.70,0.069
622.80,0.067
622.90,0.069
623.00,0.068
623.10,0.067
623.20,0.067
623.30,0.068
623.40,0.073
623.50,0.071
623.60,0.068
623.70,0.071
623.80,0.069
623.90,0.071
624.00,0.071
624.10,0.072
624.20,0.073
624.30,0.070
624.40,0.071
624.50,0.069
624.60,0.070
624.70,0.072
624.80,0.069
624.90,0.068
625.00,0.064
625.10,0.067
625.20,0.066
625.30,0.071
625.40,0.065
625.50,0.068
625.60,0.069
625.70,0.071
625.80,0.074
625.90,0.066
626.00,0.073
626.10,0.069
626.20,0.066
626.30,0.068
626.40,0.070
626.50,0.067
626.60,0.070
626.70,0.070
626.80,0.064
626.90,0.068
627.00,0.065
627.10,0.069
627.20,0.070
627.30,0.069
627.40,0.071
627.50,0.069
627.60,0.068
627.70,0.074
627.80,0.070
627.90,0.067
628.00,0.070
628.10,0.067
628.20,0.066
628.30,0.067
628.40,0.069
628.50,0.072
628.60,0.072
628.70,0.070
628.80,0.071
628.90,0.073
629.00,0.070
629.10,0.067
629.20,0.075
629.30,0.069
629.40,0.066
629.50,0.068
629.60,0.068
629.70,0.068
629.80,0.068
629.90,0.070
630.00,0.069
630.10,0.068
630.20,0.068
630.30,0.065
630.40,0.071
630.50,0.068
630.60,0.065
630.70,0.068
630.80,0.071
630.90,0.070
631.00,0.066
631.10,0.068
631.20,0.067
631.30,0.067
631.40,0.068
631.50,0.064
631.60,0.070
631.70,0.068
631.80,0.069
631.90,0.068
632.00,0.070
632.10,0.067
632.20,0.069
632.30,0.069
632.40,0.073
632.50,0.072
632.60,0.073
632.70,0.072
632.80,0.069
632.90,0.071
633.00,0.070
633.10,0.066
633.20,0.070
633.30,0.069
633.40,0.071
633.50,0.070
633.60,0.070
633.70,0.071
633.80,0.070
633.90,0.070
634.00,0.069
634.10,0.069
634.20,0.069
634.30,0.068
634.40,0.070
634.50,0.067
634.60,0.071
634.70,0.068
634.80,0.070
634.90,0.066
635.00,0.068
635.10,0.071
635.20,0.071
635.30,0.068
635.40,0.071
635.50,0.069
635.60,0.069
635.70,0.070
635.80,0.071
635.90,0.065
636.00,0.070
636.10,0.075
636.20,0.071
636.30,0.067
636.40,0.069
636.50,0.068
636.60,0.070
636.70,0.069
636.80,0.065
636.90,0.068
637.00,0.072
637.10,0.070
637.20,0.066
637.30,0.070
637.40,0.067
637.50,0.069
637.60,0.067
637.70,0.067
637.80,0.069
637.90,0.071
638.00,0.070
638.10,0.066
638.20,0.071
638.30,0.070
638.40,0.067
638.50,0.069
638.60,0.067
638.70,0.065
638.80,0.063
638.90,0.067
639.00,0.065
639.10,0.069
639.20,0.070
639.30,0.070
639.40,0.068
639.50,0.065
639.60,0.069
639.70,0.069
639.80,0.065
639.90,0.065
640.00,0.070
640.10,0.068
640.20,0.068
640.30,0.070
640.40,0.068
640.50,0.071
640.60,0.067
640.70,0.070
640.80,0.068
640.90,0.071
641.00,0.070
641.10,0.070
641.20,0.067
641.30,0.071
641.40,0.064
641.50,0.066
641.60,0.067
641.70,0.066
641.80,0.068
641.90,0.067
642.00,0.066
642.10,0.068
642.20,0.070
642.30,0.069
642.40,0.067
642.50,0.070
642.60,0.068
642.70,0.065
642.80,0.069
642.90,0.070
643.00,0.065
643.10,0.065
643.20,0.069
643.30,0.069
643.40,0.069
643.50,0.070
643.60,0.066
643.70,0.069
643.80,0.066
643.90,0.067
644.00,0.071
644.10,0.071
644.20,0.068
644.30,0.065
644.40,0.069
644.50,0.069
644.60,0.071
644.70,0.068
644.80,0.071
644.90,0.069
645.00,0.067
645.10,0.065
645.20,0.073
645.30,0.070
645.40,0.068
645.50,0.071
645.60,0.069
645.70,0.068
645.80,0.066
645.90,0.065
646.00,0.066
646.10,0.065
646.20,0.069
646.30,0.069
646.40,0.068
646.50,0.066
646.60,0.066
646.70,0.070
646.80,0.068
646.90,0.066
647.00,0.066
647.10,0.068
647.20,0.070
647.30,0.066
647.40,0.067
647.50,0.068
647.60,0.067
647.70,0.068
647.80,0.069
647.90,0.069
648.00,0.072
648.10,0.067
648.20,0.068
648.30,0.066
648.40,0.064
648.50,0.065
648.60,0.064
648.70,0.071
648.80,0.070
648.90,0.067
649.00,0.069
649.10,0.065
649.20,0.065
649.30,0.066
649.40,0.066
649.50,0.070
649.60,0.068
649.70,0.071
649.80,0.068
649.90,0.064
650.00,0.071
