"rpcc - RawData"
"Wavelength nm.","Abs."
510.00,0.109
510.10,0.104
510.20,0.110
510.30,0.112
510.40,0.113
510.50,0.110
510.60,0.106
510.70,0.109
510.80,0.107
510.90,0.109
511.00,0.108
511.10,0.106
511.20,0.108
511.30,0.112
511.40,0.110
511.50,0.109
511.60,0.111
511.70,0.108
511.80,0.110
511.90,0.106
512.00,0.105
512.10,0.106
512.20,0.111
512.30,0.116
512.40,0.116
512.50,0.112
512.60,0.114
512.70,0.111
512.80,0.112
512.90,0.109
513.00,0.104
513.10,0.108
513.20,0.105
513.30,0.116
513.40,0.115
513.50,0.116
513.60,0.114
513.70,0.115
513.80,0.112
513.90,0.106
514.00,0.109
514.10,0.106
514.20,0.104
514.30,0.103
514.40,0.112
514.50,0.117
514.60,0.113
514.70,0.108
514.80,0.115
514.90,0.112
515.00,0.113
515.10,0.112
515.20,0.112
515.30,0.106
515.40,0.105
515.50,0.109
515.60,0.116
515.70,0.118
515.80,0.111
515.90,0.113
516.00,0.114
516.10,0.109
516.20,0.114
516.30,0.107
516.40,0.107
516.50,0.109
516.60,0.109
516.70,0.106
516.80,0.116
516.90,0.117
517.00,0.117
517.10,0.111
517.20,0.112
517.30,0.109
517.40,0.111
517.50,0.111
517.60,0.111
517.70,0.101
517.80,0.108
517.90,0.106
518.00,0.103
518.10,0.115
518.20,0.119
518.30,0.112
518.40,0.111
518.50,0.111
518.60,0.113
518.70,0.108
518.80,0.104
518.90,0.106
519.00,0.110
519.10,0.111
519.20,0.109
519.30,0.105
519.40,0.115
519.50,0.117
519.60,0.112
519.70,0.112
519.80,0.112
519.90,0.113
520.00,0.111
520.10,0.110
520.20,0.108
520.30,0.105
520.40,0.107
520.50,0.111
520.60,0.106
520.70,0.104
520.80,0.115
520.90,0.119
521.00,0.113
521.10,0.115
521.20,0.116
521.30,0.116
521.40,0.117
521.50,0.112
521.60,0.108
521.70,0.109
521.80,0.105
521.90,0.108
522.00,0.106
522.10,0.109
522.20,0.106
522.30,0.115
522.40,0.120
522.50,0.112
522.60,0.117
522.70,0.116
522.80,0.114
522.90,0.110
523.00,0.111
523.10,0.108
523.20,0.109
523.30,0.102
523.40,0.104
523.50,0.105
523.60,0.109
523.70,0.107
523.80,0.118
523.90,0.117
524.00,0.118
524.10,0.116
524.20,0.115
524.30,0.116
524.40,0.109
524.50,0.106
524.60,0.109
524.70,0.111
524.80,0.109
524.90,0.105
525.00,0.104
525.10,0.108
525.20,0.098
525.30,0.109
525.40,0.118
525.50,0.117
525.60,0.119
525.70,0.120
525.80,0.108
525.90,0.114
526.00,0.115
526.10,0.112
526.20,0.110
526.30,0.110
526.40,0.108
526.50,0.105
526.60,0.104
526.70,0.106
526.80,0.101
526.90,0.104
527.00,0.119
527.10,0.122
527.20,0.116
527.30,0.113
527.40,0.118
527.50,0.115
527.60,0.116
527.70,0.113
527.80,0.111
527.90,0.105
528.00,0.111
528.10,0.106
528.20,0.102
528.30,0.105
528.40,0.101
528.50,0.105
528.60,0.101
528.70,0.104
528.80,0.115
528.90,0.123
529.00,0.119
529.10,0.118
529.20,0.115
529.30,0.117
529.40,0.117
529.50,0.113
529.60,0.109
529.70,0.110
529.80,0.111
529.90,0.108
530.00,0.106
530.10,0.104
530.20,0.107
530.30,0.101
530.40,0.101
530.50,0.100
530.60,0.109
530.70,0.119
530.80,0.119
530.90,0.117
531.00,0.120
531.10,0.116
531.20,0.116
531.30,0.113
531.40,0.111
531.50,0.110
531.60,0.105
531.70,0.105
531.80,0.102
531.90,0.108
532.00,0.103
532.10,0.107
532.20,0.098
532.30,0.102
532.40,0.105
532.50,0.102
532.60,0.120
532.70,0.123
532.80,0.121
532.90,0.119
533.00,0.117
533.10,0.115
533.20,0.109
533.30,0.114
533.40,0.107
533.50,0.105
533.60,0.106
533.70,0.103
533.80,0.104
533.90,0.107
534.00,0.107
534.10,0.100
534.20,0.103
534.30,0.105
534.40,0.100
534.50,0.111
534.60,0.120
534.70,0.122
534.80,0.119
534.90,0.116
535.00,0.116
535.10,0.117
535.20,0.106
535.30,0.107
535.40,0.110
535.50,0.105
535.60,0.106
535.70,0.104
535.80,0.101
535.90,0.104
536.00,0.107
536.10,0.099
536.20,0.100
536.30,0.101
536.40,0.100
536.50,0.099
536.60,0.118
536.70,0.118
536.80,0.115
536.90,0.118
537.00,0.116
537.10,0.113
537.20,0.110
537.30,0.109
537.40,0.110
537.50,0.106
537.60,0.106
537.70,0.108
537.80,0.105
537.90,0.104
538.00,0.104
538.10,0.100
538.20,0.102
538.30,0.098
538.40,0.097
538.50,0.097
538.60,0.097
538.70,0.113
538.80,0.116
538.90,0.115
539.00,0.116
539.10,0.110
539.20,0.113
539.30,0.111
539.40,0.110
539.50,0.111
539.60,0.108
539.70,0.108
539.80,0.108
539.90,0.103
540.00,0.101
540.10,0.102
540.20,0.101
540.30,0.098
540.40,0.097
540.50,0.098
540.60,0.101
540.70,0.100
540.80,0.097
540.90,0.114
541.00,0.121
541.10,0.117
541.20,0.114
541.30,0.115
541.40,0.112
541.50,0.109
541.60,0.106
541.70,0.108
541.80,0.106
541.90,0.104
542.00,0.102
542.10,0.106
542.20,0.103
542.30,0.101
542.40,0.103
542.50,0.098
542.60,0.101
542.70,0.099
542.80,0.098
542.90,0.098
543.00,0.097
543.10,0.100
543.20,0.116
543.30,0.118
543.40,0.117
543.50,0.118
543.60,0.111
543.70,0.109
543.80,0.114
543.90,0.109
544.00,0.108
544.10,0.103
544.20,0.104
544.30,0.105
544.40,0.104
544.50,0.099
544.60,0.100
544.70,0.101
544.80,0.101
544.90,0.098
545.00,0.097
545.10,0.101
545.20,0.101
545.30,0.097
545.40,0.098
545.50,0.102
545.60,0.119
545.70,0.117
545.80,0.113
545.90,0.112
546.00,0.108
546.10,0.107
546.20,0.105
546.30,0.104
546.40,0.101
546.50,0.104
546.60,0.102
546.70,0.099
546.80,0.100
546.90,0.098
547.00,0.100
547.10,0.096
547.20,0.097
547.30,0.101
547.40,0.100
547.50,0.095
547.60,0.097
547.70,0.095
547.80,0.100
547.90,0.096
548.00,0.114
548.10,0.111
548.20,0.112
548.30,0.111
548.40,0.107
548.50,0.105
548.60,0.107
548.70,0.103
548.80,0.100
548.90,0.102
549.00,0.100
549.10,0.103
549.20,0.100
549.30,0.095
549.40,0.097
549.50,0.102
549.60,0.104
549.70,0.095
549.80,0.098
549.90,0.096
550.00,0.100
550.10,0.097
550.20,0.095
550.30,0.092
550.40,0.096
550.50,0.110
550.60,0.113
550.70,0.110
550.80,0.108
550.90,0.104
551.00,0.102
551.10,0.102
551.20,0.102
551.30,0.099
551.40,0.099
551.50,0.098
551.60,0.101
551.70,0.100
551.80,0.097
551.90,0.099
552.00,0.103
552.10,0.095
552.20,0.100
552.30,0.099
552.40,0.098
552.50,0.101
552.60,0.094
552.70,0.091
552.80,0.090
552.90,0.092
553.00,0.098
553.10,0.111
553.20,0.105
553.30,0.105
553.40,0.107
553.50,0.103
553.60,0.105
553.70,0.101
553.80,0.102
553.90,0.099
554.00,0.099
554.10,0.097
554.20,0.095
554.30,0.095
554.40,0.100
554.50,0.097
554.60,0.102
554.70,0.099
554.80,0.102
554.90,0.099
555.00,0.095
555.10,0.094
555.20,0.092
555.30,0.094
555.40,0.090
555.50,0.093
555.60,0.090
555.70,0.091
555.80,0.101
555.90,0.105
556.00,0.104
556.10,0.102
556.20,0.105
556.30,0.100
556.40,0.098
556.50,0.097
556.60,0.097
556.70,0.099
556.80,0.096
556.90,0.094
557.00,0.092
557.10,0.100
557.20,0.102
557.30,0.102
557.40,0.099
557.50,0.101
557.60,0.095
557.70,0.094
557.80,0.096
557.90,0.094
558.00,0.095
558.10,0.096
558.20,0.090
558.30,0.088
558.40,0.084
558.50,0.087
558.60,0.098
558.70,0.099
558.80,0.097
558.90,0.098
559.00,0.098
559.10,0.096
559.20,0.099
559.30,0.097
559.40,0.096
559.50,0.094
559.60,0.093
559.70,0.099
559.80,0.102
559.90,0.102
560.00,0.099
560.10,0.096
560.20,0.095
560.30,0.096
560.40,0.099
560.50,0.094
560.60,0.092
560.70,0.093
560.80,0.092
560.90,0.090
561.00,0.090
561.10,0.092
561.20,0.085
561.30,0.088
561.40,0.093
561.50,0.098
561.60,0.097
561.70,0.097
561.80,0.097
561.90,0.092
562.00,0.095
562.10,0.096
562.20,0.092
562.30,0.092
562.40,0.088
562.50,0.102
562.60,0.101
562.70,0.097
562.80,0.100
562.90,0.099
563.00,0.096
563.10,0.100
563.20,0.091
563.30,0.089
563.40,0.092
563.50,0.094
563.60,0.089
563.70,0.093
563.80,0.088
563.90,0.089
564.00,0.086
564.10,0.086
564.20,0.090
564.30,0.088
564.40,0.094
564.50,0.096
564.60,0.094
564.70,0.095
564.80,0.093
564.90,0.092
565.00,0.090
565.10,0.091
565.20,0.091
565.30,0.096
565.40,0.101
565.50,0.099
565.60,0.101
565.70,0.097
565.80,0.095
565.90,0.096
566.00,0.094
566.10,0.095
566.20,0.094
566.30,0.094
566.40,0.088
566.50,0.092
566.60,0.091
566.70,0.089
566.80,0.088
566.90,0.087
567.00,0.087
567.10,0.085
567.20,0.083
567.30,0.081
567.40,0.084
567.50,0.093
567.60,0.093
567.70,0.088
567.80,0.092
567.90,0.085
568.00,0.085
568.10,0.087
568.20,0.092
568.30,0.099
568.40,0.098
568.50,0.096
568.60,0.098
568.70,0.095
568.80,0.090
568.90,0.091
569.00,0.091
569.10,0.091
569.20,0.089
569.30,0.092
569.40,0.090
569.50,0.088
569.60,0.087
569.70,0.087
569.80,0.089
569.90,0.086
570.00,0.085
570.10,0.085
570.20,0.083
570.30,0.082
570.40,0.085
570.50,0.086
570.60,0.088
570.70,0.090
570.80,0.087
570.90,0.086
571.00,0.088
571.10,0.086
571.20,0.092
571.30,0.099
571.40,0.093
571.50,0.096
571.60,0.094
571.70,0.095
571.80,0.094
571.90,0.089
572.00,0.089
572.10,0.088
572.20,0.093
572.30,0.090
572.40,0.088
572.50,0.086
572.60,0.089
572.70,0.086
572.80,0.088
572.90,0.085
573.00,0.085
573.10,0.084
573.20,0.082
573.30,0.082
573.40,0.081
573.50,0.082
573.60,0.083
573.70,0.084
573.80,0.083
573.90,0.088
574.00,0.085
574.10,0.088
574.20,0.084
574.30,0.086
574.40,0.094
574.50,0.092
574.60,0.093
574.70,0.092
574.80,0.089
574.90,0.090
575.00,0.091
575.10,0.092
575.20,0.090
575.30,0.091
575.40,0.089
575.50,0.088
575.60,0.088
575.70,0.089
575.80,0.088
575.90,0.085
576.00,0.085
576.10,0.086
576.20,0.083
576.30,0.085
576.40,0.083
576.50,0.084
576.60,0.081
576.70,0.082
576.80,0.083
576.90,0.084
577.00,0.081
577.10,0.079
577.20,0.079
577.30,0.085
577.40,0.082
577.50,0.084
577.60,0.079
577.70,0.090
577.80,0.092
577.90,0.090
578.00,0.092
578.10,0.089
578.20,0.087
578.30,0.090
578.40,0.086
578.50,0.086
578.60,0.088
578.70,0.089
578.80,0.089
578.90,0.087
579.00,0.087
579.10,0.088
579.20,0.083
579.30,0.086
579.40,0.084
579.50,0.085
579.60,0.079
579.70,0.080
579.80,0.080
579.90,0.082
580.00,0.085
580.10,0.078
580.20,0.081
580.30,0.080
580.40,0.080
580.50,0.081
580.60,0.078
580.70,0.079
580.80,0.081
580.90,0.080
581.00,0.082
581.10,0.089
581.20,0.086
581.30,0.086
581.40,0.086
581.50,0.088
581.60,0.091
581.70,0.093
581.80,0.088
581.90,0.087
582.00,0.087
582.10,0.088
582.20,0.085
582.30,0.081
582.40,0.084
582.50,0.082
582.60,0.081
582.70,0.080
582.80,0.084
582.90,0.084
583.00,0.084
583.10,0.084
583.20,0.083
583.30,0.084
583.40,0.082
583.50,0.080
583.60,0.079
583.70,0.075
583.80,0.078
583.90,0.079
584.00,0.077
584.10,0.075
584.20,0.081
584.30,0.076
584.40,0.081
584.50,0.086
584.60,0.085
584.70,0.087
584.80,0.084
584.90,0.090
585.00,0.090
585.10,0.086
585.20,0.087
585.30,0.086
585.40,0.083
585.50,0.080
585.60,0.084
585.70,0.082
585.80,0.077
585.90,0.083
586.00,0.077
586.10,0.081
586.20,0.079
586.30,0.081
586.40,0.083
586.50,0.080
586.60,0.082
586.70,0.083
586.80,0.080
586.90,0.079
587.00,0.079
587.10,0.075
587.20,0.076
587.30,0.075
587.40,0.077
587.50,0.078
587.60,0.076
587.70,0.079
587.80,0.075
587.90,0.077
588.00,0.086
588.10,0.081
588.20,0.083
588.30,0.089
588.40,0.086
588.50,0.086
588.60,0.085
588.70,0.085
588.80,0.089
588.90,0.084
589.00,0.082
589.10,0.086
589.20,0.082
589.30,0.082
589.40,0.076
589.50,0.079
589.60,0.079
589.70,0.080
589.80,0.078
589.90,0.081
590.00,0.078
590.10,0.079
590.20,0.082
590.30,0.078
590.40,0.080
590.50,0.078
590.60,0.074
590.70,0.079
590.80,0.080
590.90,0.075
591.00,0.076
591.10,0.077
591.20,0.076
591.30,0.077
591.40,0.077
591.50,0.075
591.60,0.077
591.70,0.077
591.80,0.079
591.90,0.085
592.00,0.082
592.10,0.082
592.20,0.081
592.30,0.081
592.40,0.083
592.50,0.084
592.60,0.084
592.70,0.085
592.80,0.083
592.90,0.084
593.00,0.084
593.10,0.080
593.20,0.079
593.30,0.080
593.40,0.077
593.50,0.074
593.60,0.074
593.70,0.074
593.80,0.076
593.90,0.075
594.00,0.077
594.10,0.075
594.20,0.078
594.30,0.076
594.40,0.075
594.50,0.078
594.60,0.076
594.70,0.078
594.80,0.073
594.90,0.077
595.00,0.077
595.10,0.076
595.20,0.074
595.30,0.081
595.40,0.083
595.50,0.082
595.60,0.081
595.70,0.083
595.80,0.081
595.90,0.078
596.00,0.080
596.10,0.079
596.20,0.077
596.30,0.079
596.40,0.078
596.50,0.078
596.60,0.077
596.70,0.078
596.80,0.077
596.90,0.076
597.00,0.080
597.10,0.079
597.20,0.075
597.30,0.074
597.40,0.076
597.50,0.074
597.60,0.075
597.70,0.075
597.80,0.074
597.90,0.075
598.00,0.074
598.10,0.074
598.20,0.075
598.30,0.074
598.40,0.071
598.50,0.074
598.60,0.074
598.70,0.074
598.80,0.070
598.90,0.074
599.00,0.071
599.10,0.076
599.20,0.078
599.30,0.082
599.40,0.076
599.50,0.078
599.60,0.079
599.70,0.079
599.80,0.079
599.90,0.077
600.00,0.076
600.10,0.079
600.20,0.080
600.30,0.081
600.40,0.079
600.50,0.078
600.60,0.081
600.70,0.077
600.80,0.077
600.90,0.077
601.00,0.078
601.10,0.079
601.20,0.080
601.30,0.077
601.40,0.074
601.50,0.079
601.60,0.078
601.70,0.078
601.80,0.075
601.90,0.077
602.00,0.075
602.10,0.074
602.20,0.075
602.30,0.075
602.40,0.074
602.50,0.073
602.60,0.074
602.70,0.071
602.80,0.072
602.90,0.075
603.00,0.079
603.10,0.078
603.20,0.079
603.30,0.081
603.40,0.077
603.50,0.081
603.60,0.080
603.70,0.079
603.80,0.079
603.90,0.080
604.00,0.079
604.10,0.079
604.20,0.080
604.30,0.079
604.40,0.077
604.50,0.078
604.60,0.077
604.70,0.072
604.80,0.076
604.90,0.074
605.00,0.073
605.10,0.072
605.20,0.073
605.30,0.074
605.40,0.072
605.50,0.073
605.60,0.074
605.70,0.073
605.80,0.074
605.90,0.073
606.00,0.074
606.10,0.071
606.20,0.071
606.30,0.073
606.40,0.076
606.50,0.072
606.60,0.074
606.70,0.073
606.80,0.075
606.90,0.079
607.00,0.081
607.10,0.082
607.20,0.080
607.30,0.082
607.40,0.080
607.50,0.079
607.60,0.080
607.70,0.078
607.80,0.080
607.90,0.079
608.00,0.079
608.10,0.081
608.20,0.080
608.30,0.076
608.40,0.078
608.50,0.079
608.60,0.076
608.70,0.078
608.80,0.079
608.90,0.076
609.00,0.080
609.10,0.078
609.20,0.076
609.30,0.075
609.40,0.080
609.50,0.080
609.60,0.079
609.70,0.080
609.80,0.078
609.90,0.079
610.00,0.076
610.10,0.077
610.20,0.080
610.30,0.079
610.40,0.075
610.50,0.075
610.60,0.073
610.70,0.075
610.80,0.081
610.90,0.078
611.00,0.085
611.10,0.077
611.20,0.083
611.30,0.076
611.40,0.076
611.50,0.081
611.60,0.076
611.70,0.074
611.80,0.072
611.90,0.073
612.00,0.071
612.10,0.074
612.20,0.074
612.30,0.070
612.40,0.074
612.50,0.075
612.60,0.069
612.70,0.073
612.80,0.071
612.90,0.074
613.00,0.073
613.10,0.071
613.20,0.070
613.30,0.067
613.40,0.068
613.50,0.071
613.60,0.070
613.70,0.073
613.80,0.074
613.90,0.073
614.00,0.073
614.10,0.073
614.20,0.073
614.30,0.073
614.40,0.075
614.50,0.075
614.60,0.074
614.70,0.078
614.80,0.077
614.90,0.078
615.00,0.076
615.10,0.079
615.20,0.077
615.30,0.077
615.40,0.078
615.50,0.078
615.60,0.074
615.70,0.079
615.80,0.074
615.90,0.075
616.00,0.079
616.10,0.070
616.20,0.072
616.30,0.071
616.40,0.073
616.50,0.070
616.60,0.072
616.70,0.074
616.80,0.076
616.90,0.071
617.00,0.074
617.10,0.078
617.20,0.075
617.30,0.074
617.40,0.075
617.50,0.075
617.60,0.073
617.70,0.074
617.80,0.073
617.90,0.070
618.00,0.070
618.10,0.068
618.20,0.072
618.30,0.070
618.40,0.070
618.50,0.072
618.60,0.076
618.70,0.077
618.80,0.078
618.90,0.079
619.00,0.076
619.10,0.078
619.20,0.078
619.30,0.076
619.40,0.076
619.50,0.071
619.60,0.073
619.70,0.075
619.80,0.073
619.90,0.068
620.00,0.073
620.10,0.074
620.20,0.076
620.30,0.077
620.40,0.077
620.50,0.074
620.60,0.068
620.70,0.073
620.80,0.071
620.90,0.071
621.00,0.074
621.10,0.075
621.20,0.074
621.30,0.074
621.40,0.078
621.50,0.074
621.60,0.077
621.70,0.073
621.80,0.073
621.90,0.075
622.00,0.077
622.10,0.076
622.20,0.075
622.30,0.071
622.40,0.072
622.50,0.072
622.60,0.070
622.70,0.069
622.80,0.068
622.90,0.070
623.00,0.071
623.10,0.073
623.20,0.075
623.30,0.079
623.40,0.077
623.50,0.075
623.60,0.077
623.70,0.071
623.80,0.069
623.90,0.071
624.00,0.071
624.10,0.072
624.20,0.069
624.30,0.071
624.40,0.072
624.50,0.074
624.60,0.076
624.70,0.077
624.80,0.076
624.90,0.075
625.00,0.072
625.10,0.072
625.20,0.076
625.30,0.075
625.40,0.073
625.50,0.070
625.60,0.073
625.70,0.071
625.80,0.075
625.90,0.069
626.00,0.071
626.10,0.073
626.20,0.071
626.30,0.072
626.40,0.072
626.50,0.071
626.60,0.075
626.70,0.077
626.80,0.070
626.90,0.071
627.00,0.070
627.10,0.073
627.20,0.071
627.30,0.072
627.40,0.071
627.50,0.071
627.60,0.072
627.70,0.078
627.80,0.077
627.90,0.073
628.00,0.072
628.10,0.073
628.20,0.070
628.30,0.073
628.40,0.072
628.50,0.077
628.60,0.073
628.70,0.075
628.80,0.079
628.90,0.077
629.00,0.077
629.10,0.071
629.20,0.073
629.30,0.070
629.40,0.071
629.50,0.070
629.60,0.070
629.70,0.068
629.80,0.070
629.90,0.069
630.00,0.073
630.10,0.072
630.20,0.073
630.30,0.070
630.40,0.073
630.50,0.074
630.60,0.068
630.70,0.071
630.80,0.074
630.90,0.075
631.00,0.073
631.10,0.073
631.20,0.072
631.30,0.071
631.40,0.070
631.50,0.071
631.60,0.068
631.70,0.073
631.80,0.075
631.90,0.072
632.00,0.074
632.10,0.075
632.20,0.074
632.30,0.072
632.40,0.073
632.50,0.070
632.60,0.071
632.70,0.072
632.80,0.073
632.90,0.070
633.00,0.071
633.10,0.071
633.20,0.076
633.30,0.074
633.40,0.073
633.50,0.075
633.60,0.071
633.70,0.074
633.80,0.070
633.90,0.073
634.00,0.073
634.10,0.075
634.20,0.072
634.30,0.079
634.40,0.074
634.50,0.074
634.60,0.074
634.70,0.070
634.80,0.072
634.90,0.069
635.00,0.075
635.10,0.073
635.20,0.075
635.30,0.073
635.40,0.072
635.50,0.072
635.60,0.069
635.70,0.072
635.80,0.073
635.90,0.070
636.00,0.073
636.10,0.078
636.20,0.074
636.30,0.073
636.40,0.076
636.50,0.071
636.60,0.074
636.70,0.071
636.80,0.072
636.90,0.075
637.00,0.073
637.10,0.073
637.20,0.070
637.30,0.074
637.40,0.073
637.50,0.075
637.60,0.071
637.70,0.072
637.80,0.072
637.90,0.070
638.00,0.074
638.10,0.065
638.20,0.073
638.30,0.073
638.40,0.072
638.50,0.075
638.60,0.074
638.70,0.071
638.80,0.068
638.90,0.073
639.00,0.070
639.10,0.073
639.20,0.073
639.30,0.074
639.40,0.073
639.50,0.072
639.60,0.072
639.70,0.072
639.80,0.071
639.90,0.070
640.00,0.073
640.10,0.068
640.20,0.070
640.30,0.072
640.40,0.070
640.50,0.076
640.60,0.071
640.70,0.072
640.80,0.070
640.90,0.074
641.00,0.071
641.10,0.076
641.20,0.073
641.30,0.071
641.40,0.066
641.50,0.073
641.60,0.073
641.70,0.072
641.80,0.068
641.90,0.072
642.00,0.071
642.10,0.071
642.20,0.071
642.30,0.071
642.40,0.072
642.50,0.070
642.60,0.071
642.70,0.067
642.80,0.072
642.90,0.075
643.00,0.070
643.10,0.073
643.20,0.072
643.30,0.070
643.40,0.070
643.50,0.072
643.60,0.072
643.70,0.074
643.80,0.071
643.90,0.071
644.00,0.073
644.10,0.072
644.20,0.074
644.30,0.072
644.40,0.076
644.50,0.071
644.60,0.071
644.70,0.073
644.80,0.073
644.90,0.074
645.00,0.072
645.10,0.073
645.20,0.071
645.30,0.075
645.40,0.067
645.50,0.074
645.60,0.072
645.70,0.069
645.80,0.073
645.90,0.073
646.00,0.075
646.10,0.073
646.20,0.072
646.30,0.070
646.40,0.071
646.50,0.077
646.60,0.076
646.70,0.073
646.80,0.074
646.90,0.069
647.00,0.068
647.10,0.072
647.20,0.076
647.30,0.074
647.40,0.073
647.50,0.074
647.60,0.069
647.70,0.072
647.80,0.070
647.90,0.073
648.00,0.075
648.10,0.075
648.20,0.077
648.30,0.073
648.40,0.070
648.50,0.067
648.60,0.065
648.70,0.071
648.80,0.076
648.90,0.074
649.00,0.078
649.10,0.072
649.20,0.067
649.30,0.066
649.40,0.071
649.50,0.074
649.60,0.072
649.70,0.074
649.80,0.076
649.90,0.070
650.00,0.067
